 altitude   10000.000000000000     
 rho   1.7555493818305818E-003
 airspeed   350.00000000000000     
 planform area   300.00000000000000     
   alpha[deg]                CL                        CD                        Cm
  -180.00000000000000       -6.4733113944037848E-007   1.3632688387956926E-006  -1.9261601057061909E-008
  -179.00000000000000        6.0835279399551944E-004   1.2155159715638899E-005   1.8833498444335151E-004
  -178.00000000000000        2.4336483789344841E-003   8.6716157853995420E-005   7.5317207861837372E-004
  -177.00000000000003        5.4696783821181335E-003   2.8860462767641164E-004   1.6938038203300244E-003
  -175.99999999999997        9.7071921979274400E-003   6.8099139521904145E-004   3.0090841566325038E-003
  -174.99999999999997        1.5133275270841977E-002   1.3264672261079288E-003   4.6974105779191032E-003
  -174.00000000000000        2.1731384862091235E-002   2.2868519150032094E-003   6.7567260696562497E-003
  -173.00000000000000        2.9481395870362779E-002   3.6230055162807116E-003   9.1845216177736215E-003
  -172.00000000000000        3.8359656580359863E-002   5.3946422395317987E-003   1.1977839264645533E-002
  -171.00000000000000        4.8339054185780356E-002   7.6601475265605000E-003   1.5133275711927291E-002
  -170.00000000000000        5.9389089906335318E-002   1.0476398817623545E-002   1.8646986465845089E-002
  -169.00000000000000        7.1475963492179190E-002   1.3898590504656180E-002   2.2514690519870730E-002
  -168.00000000000000        8.4562666883043133E-002   1.7980063557909355E-002   2.6731675569059202E-002
  -167.00000000000000        9.8609086764442286E-002   2.2772140299543862E-002   3.1292803749676995E-002
  -166.00000000000003       0.11357211573859503        2.8323964783659148E-002   3.6192517897104690E-002
  -164.99999999999997       0.12940577180407214        3.4682349227137144E-002   4.1424848314365062E-002
  -164.00000000000000       0.14606132581522355        4.1891626918931384E-002   4.6983420043003335E-002
  -163.00000000000000       0.16348743657044160        4.9993512017884559E-002   5.2861460627428573E-002
  -162.00000000000000       0.18163029315720661        5.9026966630368924E-002   5.9051808363222935E-002
  -160.99999999999997       0.20043376416180764        6.9028075539129791E-002   6.5546921019330101E-002
  -160.00000000000000       0.21983955333260710        8.0029928933940606E-002   7.2338885023452607E-002
  -159.00000000000000       0.23978736126781838        9.2062513472757110E-002   7.9419425099420751E-002
  -158.00000000000000       0.26021505268201695       0.10515261197946532        8.6779914344735171E-002
  -156.99999999999997       0.28105882878999805       0.11932371206075656        9.4411384735946985E-002
  -156.00000000000000       0.30225340433241071       0.13459592390030961       0.10230453804900999     
  -155.00000000000000       0.32373218875437382       0.15098590746369586       0.11044975718122553     
  -154.00000000000003       0.34542747103673771       0.16850680932156803       0.11883711786090333     
  -153.00000000000000       0.36727060766911174       0.18716820927269803       0.12745640073038206     
  -152.00000000000000       0.38919221324484843       0.20697607692195411       0.13629710378758467     
  -151.00000000000000       0.41112235315046358       0.22793273834090846       0.14534845517084008     
  -150.00000000000003       0.43299073781579323       0.25003685291188693       0.15459942627127066     
  -149.00000000000000       0.45472691798621262       0.27328340042833882       0.16403874515662692     
  -148.00000000000000       0.47626048047508379       0.29766367849688319       0.17365491029006674     
  -147.00000000000000       0.49752124385225949       0.32316531025839396       0.18343620452699430     
  -146.00000000000000       0.51843945352422982       0.34977226241785253       0.19337070937271347     
  -145.00000000000000       0.53894597566215574       0.37746487354460601       0.20344631948332337     
  -144.00000000000000       0.55897248943630939       0.40621989257748664       0.21365075739195502     
  -143.00000000000000       0.57845167701917821       0.43601052744143076       0.22397158844215692     
  -142.00000000000000       0.59731741082442102       0.46680650365549098       0.23439623590995337     
  -141.00000000000000       0.61550493745527801       0.49857413278532409       0.24491199629584240     
  -140.00000000000000       0.63295105784375127       0.53127639056697418       0.25550605476776495     
  -139.00000000000000       0.64959430307081456       0.56487300450332256       0.26616550073585143     
  -137.99999999999997       0.66537510536819533       0.59932055070925028       0.27687734353956084     
  -137.00000000000000       0.68023596381370766       0.63457255975757065       0.28762852822763807     
  -136.00000000000000       0.69412160424470559       0.67057963125395093       0.29840595141117338     
  -135.00000000000000       0.70697913292800552       0.70728955684649508       0.30919647716988996     
  -133.99999999999997       0.71875818353932686       0.74464745135385446       0.31998695299168090     
  -133.00000000000000       0.72941105702120956       0.78259589167496435       0.33076422572531017     
  -132.00000000000000       0.73889285390492165       0.82107506312371348       0.34151515752611677     
  -131.00000000000003       0.74716159869957599       0.86002291281338417       0.35222664177448892     
  -130.00000000000000       0.75417835596996785       0.89937530969810375       0.36288561894684879     
  -129.00000000000000       0.75990733774374630       0.93906621086264563       0.37347909241884381     
  -128.00000000000000       0.76431600190822946       0.97902783363686152       0.38399414418045219     
  -127.00000000000003       0.76737514127740580        1.0191908330976507       0.39441795044270384     
  -126.00000000000000       0.76905896303038979        1.0594844845094429       0.40473779711575436     
  -124.99999999999999       0.76934515824358984        1.0998368702433066       0.41494109513808280     
  -124.00000000000000       0.76821496126024280        1.1401750707062457       0.42501539563665164     
  -123.00000000000001       0.76565319866230297        1.1804253588042748       0.43494840489793407     
  -122.00000000000000       0.76164832763131263        1.2205133974575417       0.44472799912979105     
  -121.00000000000000       0.75619246350612535        1.2603644396812634       0.45434223899429582     
  -119.99999999999999       0.74928139636681956        1.2999035307440165       0.46377938389170104     
  -119.00000000000000       0.74091459649482483        1.3390557119142477       0.47302790597587541     
  -118.00000000000000       0.73109520857999932        1.3777462253068817       0.48207650388165701     
  -117.00000000000000       0.71983003456517580        1.4159007193449589       0.49091411614473174     
  -116.00000000000000       0.70712950503800320        1.4534454543560726       0.49952993429478154     
  -114.99999999999999       0.69300763909837337        1.4903075078299295       0.50791341560281267     
  -114.00000000000000       0.67748199264702291        1.5264149788721855       0.51605429546374204     
  -113.00000000000000       0.66057359505741264        1.5616971914000688       0.52394259939549415     
  -112.00000000000000       0.64230687420794441        1.5960848956379512       0.53156865463603764     
  -111.00000000000000       0.62270956986535242        1.6295104674854903       0.53892310131997578     
  -110.00000000000000       0.60181263542222962        1.6619081053474005       0.54599690321649563     
  -108.99999999999999       0.57965012800216875        1.6932140240324118       0.55278135801067441     
  -108.00000000000000       0.55625908695469095        1.7233666453494501       0.55926810711033581     
  -107.00000000000000       0.53167940076890563        1.7523067850513561       0.56544914496085108     
  -106.00000000000000       0.50595366243960715        1.7799778358009823       0.57131682785049021     
  -105.00000000000000       0.47912701332212632        1.8063259458605916       0.57686388218912388     
  -104.00000000000001       0.45124697551270898        1.8313001932336177       0.58208341224330806     
  -103.00000000000000       0.42236327278948976        1.8548527550176612       0.58696890731099471     
  -102.00000000000000       0.39252764014514874        1.8769390717588710       0.59151424831934130     
  -101.00000000000000       0.36179362193641362        1.8975180066308688       0.59571371382933114     
  -100.00000000000000       0.33021635866762566        1.9165519992953128       0.59956198543118333     
  -99.000000000000014       0.29785236241616103        1.9340072143361999       0.60305415251477246     
  -98.000000000000000       0.26475928089672612        1.9498536841955405       0.60618571639960694     
  -97.000000000000000       0.23099565015042653        1.9640654465737679       0.60895259380919797     
  -96.000000000000000       0.19662063583346118        1.9766206762931782       0.61135111967504063     
  -95.000000000000000       0.16169376307081010        1.9875018116567589       0.61337804925580097     
  -94.000000000000000       0.12627463483364029        1.9966956753661871       0.61503055955776165     
  -92.999999999999986        9.0422638797416785E-002   2.0041935900911350       0.61630625004310347     
  -92.000000000000000        5.4196642643344312E-002   2.0099914888052379       0.61720314261318754     
  -91.000000000000000        1.7654677782006006E-002   2.0140900200206429       0.61771968085470019     
  -90.000000000000000       -1.9146388490889326E-002   2.0164946480606067       0.61785472853733203     
  -89.000000000000000       -5.6151192345993813E-002   2.0172157485052424       0.61760756735261924     
  -87.999999999999986       -9.3306224141223304E-002   2.0162686989260319       0.61697789388468449     
  -87.000000000000000      -0.13056019026286925        2.0136739649855300       0.61596581580494603     
  -86.000000000000000      -0.16786438568226031        2.0094571819153004       0.61457184728440906     
  -85.000000000000000      -0.20517307661165557        2.0036492312906611       0.61279690361900141     
  -84.000000000000000      -0.24244389236067232        1.9962863128885888       0.61064229506557044     
  -83.000000000000014      -0.27963822512376152        1.9874100112358994       0.60810971988873330     
  -82.000000000000000      -0.31672163594910857        1.9770673562182002       0.60520125662176183     
  -81.000000000000000      -0.35366426452491795        1.9653108768141456       0.60191935554825082     
  -80.000000000000000      -0.39044123964169547        1.9521986466293952       0.59826682941546794     
  -79.000000000000000      -0.42703308621531649        1.9377943194146625       0.59424684339517297     
  -78.000000000000000      -0.46342612354858220        1.9221671521430002       0.58986290431342936     
  -77.000000000000014      -0.49961284802718486        1.9053920124731765       0.58511884917760437     
  -76.000000000000000      -0.53559229164652711        1.8875493665152849       0.58001883303657520     
  -75.000000000000014      -0.57137034560471789        1.8687252417189739       0.57456731621924673     
  -74.000000000000000      -0.60696003563349965        1.8490111583995070       0.56876905100705177     
  -73.000000000000000      -0.64238173274021571        1.8285040218810116       0.56262906780834776     
  -72.000000000000000      -0.67766327958289285        1.8073059654519825       0.55615266091679805     
  -71.000000000000000      -0.71284000880568099        1.7855241322863504       0.54934537395214611     
  -70.000000000000000      -0.74795462537162771        1.7632703821884839       0.54221298510059757     
  -68.999999999999986      -0.78305692035015162        1.7406609064973888       0.53476149229355363     
  -68.000000000000000      -0.81820327893409572        1.7178157317891998       0.52699709848804865     
  -66.999999999999986      -0.85345594096964406        1.6948580902451935       0.51892619724027467     
  -66.000000000000000      -0.88888196841286260        1.6719136318581533       0.51055535879529101     
  -65.000000000000000      -0.92455187147861817        1.6491094512605207       0.50189131695183486     
  -64.000000000000000      -0.96053784461627156        1.6265729001918416       0.49294095700126872     
  -63.000000000000000      -0.99691156583862794        1.6044301559097474       0.48371130508441046     
  -62.000000000000000       -1.0337415195586979        1.5828045167424567       0.47420951935940425     
  -61.000000000000000       -1.0710898153293609        1.5618143991683147       0.46444288342791012     
  -59.999999999999993       -1.1090084941783178        1.5415710171014456       0.45441880252550215     
  -59.000000000000000       -1.1475353419274976        1.5221757343673792       0.44414480304479698     
  -58.000000000000000       -1.1866892659669177        1.5037170966013398       0.43362853602558504     
  -57.000000000000000       -1.2264653386905866        1.4862675698399239       0.42287778531377335     
  -56.000000000000000       -1.2668296663241396        1.4698800404910093       0.41190048115820871     
  -55.000000000000000       -1.3077143036909722        1.4545841652499296       0.40070472007857239     
  -54.000000000000000       -1.3490124990460821        1.4403826991917932       0.38929879189470312     
  -53.000000000000000       -1.3905746116403339        1.4272479739141828       0.37769121485264012     
  -52.000000000000007       -1.4322050891681841        1.4151187420329483       0.36589077980885909     
  -51.000000000000000       -1.4736609121504329        1.4038976447516529       0.35390660443309285     
  -50.000000000000000       -1.5146518967863323        1.3934495892698777       0.34174819835144937     
  -49.000000000000000       -1.5548431877111193        1.3836013349056637       0.32942554006270275     
  -48.000000000000000       -1.5938601623111406        1.3741425730454020       0.31694916630691766     
  -47.000000000000000       -1.6312958101685480        1.3648287393956360       0.30433027433010795     
  -46.000000000000000       -1.6667204545337357        1.3553857131356188       0.29158083715292887     
  -45.000000000000000       -1.6996934659463792        1.3455164365982399       0.27871373149600648     
  -43.999999999999993       -1.7297764070658994        1.3349093372495089       0.26574287742028752     
  -43.000000000000000       -1.7565468720232991        1.3232482640048266       0.25268338799101142     
  -42.000000000000000       -1.7796121713197324        1.3102234815077558       0.23955172635672964     
  -41.000000000000000       -1.7986219853875582        1.2955431220242650       0.22636586654707380     
  -40.000000000000000       -1.8132791751783959        1.2789443983576492       0.21314545304451668     
  -39.000000000000000       -1.8233480906267432        1.2602038515060849       0.19991195280424123     
  -38.000000000000000       -1.8286599375542787        1.2391459536796359       0.18668879193420237     
  -37.000000000000000       -1.8291150202340105        1.2156495090340500       0.17350146778532768     
  -36.000000000000000       -1.8246819358158954        1.1896514770918394       0.16037762585336804     
  -35.000000000000000       -1.8153940257884063        1.1611480633526832       0.14734708980746253     
  -34.000000000000000       -1.8013435640778042        1.1301931486451668       0.13444183231599657     
  -33.000000000000000       -1.7826742678052567        1.0968943341425286       0.12169587434079222     
  -32.000000000000000       -1.7595727533149284        1.0614070389621744       0.10914510142589674     
  -31.000000000000000       -1.7322595348980210        1.0239271873810130        9.6826987409493956E-002
  -29.999999999999996       -1.7009800913007449       0.98468305895685426        8.4780219079395841E-002
  -29.000000000000000       -1.6659964231087945       0.94392685287447897        7.3044219629698509E-002
  -28.000000000000000       -1.6275794094948266       0.90192645021458928        6.1658574289036983E-002
  -27.000000000000000       -1.5860021598662355       0.85895776070368557        5.0662367953510312E-002
  -26.000000000000004       -1.5415344549358643       0.81529793024210506        4.0093451671087542E-002
  -25.000000000000000       -1.4944382887355838       0.77121957628624294        2.9987661825355789E-002
  -24.000000000000000       -1.4449644604766392       0.72698612044911148        2.0378022163874465E-002
  -23.000000000000000       -1.3933501224797991       0.68284820783046152        1.1293963662204804E-002
  -21.999999999999996       -1.3398171653529278       0.63904114317713934        2.7605999010349574E-003
  -21.000000000000000       -1.2845713109199748       0.59578323463898653       -5.2019043958276279E-003
  -20.000000000000000       -1.2278017835687818       0.55327491428747277       -1.2578837059887294E-002
  -19.000000000000000       -1.1696814383516179       0.51169849731829142       -1.9361285834712406E-002
  -18.000000000000000       -1.1103672364796302       0.47121844527418744       -2.5546309415550666E-002
  -17.000000000000000       -1.0500009735235960       0.43198200921736568       -3.1136922639198622E-002
  -16.000000000000000      -0.98871018098067376       0.39412014357589625       -3.6141897589115540E-002
  -14.999999999999998      -0.92660913673115974       0.35774859804214937       -4.0575393434226954E-002
  -14.000000000000000      -0.86379993356740403       0.32296911170658432       -4.4456437571804397E-002
  -13.000000000000002      -0.80037356704272211       0.28987064942824264       -4.7808288225405969E-002
  -12.000000000000000      -0.73641101421872635       0.25853063459922843       -5.0657713485582449E-002
  -10.999999999999998      -0.67198428350723005       0.22901614463233369       -5.3034223653870421E-002
  -10.000000000000000      -0.60715742283241947       0.20138504561642956       -5.4969292787180241E-002
  -9.0000000000000000      -0.54198747896061428       0.17568705073397198       -5.6495601958038377E-002
  -8.0000000000000000      -0.47652540526162912       0.15196469340492547       -5.7646331561687622E-002
  -7.0000000000000000      -0.41081691858126662       0.13025421094330711       -5.8454523719592741E-002
  -6.0000000000000000      -0.34490330850982731       0.11058633802977344       -5.8952529145820359E-002
  -5.0000000000000000      -0.27882220429778481        9.2987011749658802E-002  -5.9171546363387451E-002
  -4.0000000000000000      -0.21260830614455239        7.7477991531599399E-002  -5.9141255346864458E-002
  -3.0000000000000000      -0.14629408869342933        6.4077398230044796E-002  -5.8889542829249575E-002
  -2.0000000000000000       -7.9910485406246345E-002   5.2800176978359446E-002  -5.8442312793549334E-002
  -1.0000000000000000       -1.3487563144629155E-002   4.3658488421932394E-002  -5.7823373087985019E-002
   0.0000000000000000        5.2944803188410362E-002   3.6662032620713089E-002  -5.7054387573646032E-002
   1.0000000000000000       0.11936898035326240        3.1818503329751599E-002  -5.6193191518758068E-002
   2.0000000000000000       0.18576722038910190        2.9134295222208360E-002  -5.5282232071650304E-002
   3.0000000000000000       0.25210930295640976        2.8614005392433407E-002  -5.4319547620465307E-002
   4.0000000000000000       0.31836458122825539        3.0260451689198942E-002  -5.3304436483543688E-002
   5.0000000000000000       0.38450130091100831        3.4074848067103217E-002  -5.2237269340445994E-002
   6.0000000000000000       0.45048591683270722        4.0056921601840989E-002  -5.1119319950020350E-002
   7.0000000000000000       0.51628239729830272        4.8204975640836104E-002  -4.9952615907341041E-002
